Format Version,1.23,Take Name,experiment_005,Take Notes,,Capture Frame Rate,240.000000,Export Frame Rate,240.000000,Capture Start Time,2025-05-08 01.49.57.954 ,Capture Start Frame,3442474,Total Frames in Take,11569,Total Exported Frames,11569,Rotation Type,XZY,Length Units,Meters,Coordinate Space,Global

,Type,Rigid Body,Rigid Body,Rigid Body,Rigid Body,Rigid Body,Rigid Body,Rigid Body,Rigid Body,Rigid Body,Rigid Body,Rigid Body,Rigid Body
,Name,Tavle,Tavle,Tavle,Tavle,Tavle,Tavle,Telefon,Telefon,Telefon,Telefon,Telefon,Telefon
,ID,193EA3EC2BE911F015A14DC6E7103CBB,193EA3EC2BE911F015A14DC6E7103CBB,193EA3EC2BE911F015A14DC6E7103CBB,193EA3EC2BE911F015A14DC6E7103CBB,193EA3EC2BE911F015A14DC6E7103CBB,193EA3EC2BE911F015A14DC6E7103CBB,84A82AC2BF011F015A14DC6E7103CBB,84A82AC2BF011F015A14DC6E7103CBB,84A82AC2BF011F015A14DC6E7103CBB,84A82AC2BF011F015A14DC6E7103CBB,84A82AC2BF011F015A14DC6E7103CBB,84A82AC2BF011F015A14DC6E7103CBB
,,Rotation,Rotation,Rotation,Position,Position,Position,Rotation,Rotation,Rotation,Position,Position,Position
Frame,Time (Seconds),X,Z,Y,X,Y,Z,X,Z,Y,X,Y,Z
0,0.000000,0.624400,0.206218,0.037527,2.763600,1.977705,-2.855475,-1.831380,0.708523,89.480934,2.572509,1.747136,-0.643062
1,0.004000,0.623188,0.209400,0.045543,2.763597,1.977711,-2.855477,-0.384918,1.169035,91.348076,2.572227,1.746888,-0.640858
2,0.008000,0.608796,0.214628,0.039264,2.763600,1.977715,-2.855489,-0.192074,1.159579,91.546730,2.572165,1.747042,-0.640474
3,0.013000,0.624336,0.224983,0.043338,2.763601,1.977728,-2.855491,-0.333916,1.111197,91.426369,2.572251,1.747111,-0.640648
4,0.017000,0.643554,0.214698,0.047008,2.763601,1.977732,-2.855483,-0.365346,1.118158,91.387947,2.572296,1.747102,-0.640703
5,0.021000,0.622565,0.215634,0.046085,2.763601,1.977724,-2.855493,-0.411961,1.100820,91.354195,2.572306,1.747107,-0.640674
6,0.025000,0.599093,0.206687,0.043504,2.763600,1.977724,-2.855500,-0.402525,1.134352,91.348221,2.572295,1.747024,-0.640631
7,0.029000,0.618899,0.217875,0.043344,2.763600,1.977723,-2.855494,-0.329061,1.180631,91.364014,2.572274,1.746948,-0.640544
8,0.033000,0.627153,0.226280,0.043694,2.763601,1.977715,-2.855488,-0.325288,1.179227,91.332054,2.572287,1.746932,-0.640564
9,0.038000,0.625497,0.223645,0.045478,2.763603,1.977720,-2.855481,-0.359513,1.201748,91.252029,2.572340,1.746910,-0.640644
10,0.042000,0.606230,0.212834,0.045863,2.763593,1.977696,-2.855477,-0.356982,1.217157,91.236542,2.572344,1.746911,-0.640640
11,0.046000,0.647512,0.204203,0.045088,2.763594,1.977702,-2.855479,-0.440081,1.216772,91.255669,2.572346,1.746914,-0.640573
12,0.050000,0.610957,0.205563,0.033129,2.763593,1.977694,-2.855485,-0.491757,1.177603,91.265907,2.572376,1.747008,-0.640537
13,0.054000,0.624492,0.194622,0.039199,2.763598,1.977700,-2.855480,-0.501900,1.142876,91.148590,2.572446,1.747013,-0.640698
14,0.058000,0.631020,0.194172,0.041802,2.763594,1.977706,-2.855494,-0.506571,1.111331,91.140549,2.572474,1.747079,-0.640671
15,0.063000,0.629240,0.210729,0.032340,2.763598,1.977717,-2.855495,-0.565259,1.135029,91.177277,2.572450,1.747029,-0.640569
16,0.067000,0.636020,0.199145,0.034797,2.763601,1.977725,-2.855481,-0.516716,1.176264,91.147301,2.572429,1.746910,-0.640578
17,0.071000,0.613284,0.204134,0.032124,2.763603,1.977723,-2.855480,-0.515513,1.175315,91.171898,2.572419,1.746915,-0.640508
18,0.075000,0.612512,0.208161,0.041457,2.763603,1.977723,-2.855496,-0.579205,1.217687,91.202805,2.572392,1.746855,-0.640462
19,0.079000,0.619582,0.219769,0.036376,2.763598,1.977723,-2.855500,-0.644749,1.192163,91.216347,2.572405,1.746889,-0.640431
20,0.083000,0.620593,0.214702,0.041917,2.763597,1.977717,-2.855490,-0.683964,1.164162,91.176842,2.572444,1.746923,-0.640498
21,0.088000,0.633357,0.207357,0.036957,2.763601,1.977725,-2.855498,-0.720885,1.142862,91.154671,2.572430,1.746923,-0.640517
22,0.092000,0.596037,0.210040,0.038880,2.763595,1.977712,-2.855490,-0.685429,1.187566,91.153900,2.572400,1.746812,-0.640486
23,0.096000,0.634865,0.221844,0.045953,2.763603,1.977717,-2.855486,-0.667402,1.233139,91.195503,2.572368,1.746706,-0.640398
24,0.100000,0.621387,0.201759,0.038893,2.763599,1.977733,-2.855483,-0.694056,1.169556,91.154778,2.572399,1.746775,-0.640433
25,0.104000,0.619465,0.201743,0.041485,2.763600,1.977722,-2.855487,-0.783849,1.170524,91.164642,2.572379,1.746730,-0.640441
26,0.108000,0.641663,0.210225,0.044892,2.763600,1.977716,-2.855481,-0.839799,1.151206,91.171356,2.572416,1.746757,-0.640451
27,0.113000,0.631956,0.215335,0.042313,2.763611,1.977724,-2.855487,-0.884861,1.129275,91.106201,2.572457,1.746732,-0.640565
28,0.117000,0.626255,0.199982,0.039244,2.763602,1.977732,-2.855491,-0.901347,1.135820,91.066406,2.572471,1.746644,-0.640620
29,0.121000,0.634863,0.200148,0.037050,2.763599,1.977719,-2.855494,-0.905138,1.174025,91.102684,2.572422,1.746530,-0.640570
30,0.125000,0.609246,0.210255,0.035116,2.763599,1.977715,-2.855490,-0.943119,1.213816,91.122490,2.572372,1.746376,-0.640515
31,0.129000,0.604692,0.211210,0.040045,2.763603,1.977714,-2.855483,-0.948889,1.225051,91.109825,2.572378,1.746320,-0.640570
32,0.133000,0.624550,0.208037,0.039478,2.763595,1.977721,-2.855486,-1.017947,1.206665,91.067673,2.572391,1.746258,-0.640639
33,0.138000,0.616492,0.195038,0.033114,2.763600,1.977717,-2.855490,-1.031428,1.206612,91.047318,2.572403,1.746174,-0.640722
34,0.142000,0.648250,0.210021,0.045334,2.763603,1.977723,-2.855471,-1.042731,1.224507,91.022797,2.572414,1.746079,-0.640790
35,0.146000,0.622655,0.203248,0.043060,2.763604,1.977728,-2.855482,-1.094474,1.229980,91.010414,2.572424,1.745988,-0.640830
36,0.150000,0.627428,0.204713,0.037302,2.763597,1.977725,-2.855473,-1.173672,1.212357,90.988602,2.572413,1.745922,-0.640874
37,0.154000,0.646930,0.212544,0.046165,2.763594,1.977717,-2.855479,-1.246053,1.222222,90.985924,2.572407,1.745832,-0.640923
38,0.158000,0.618219,0.203879,0.044263,2.763601,1.977721,-2.855494,-1.272991,1.233153,90.971375,2.572415,1.745742,-0.640966
39,0.163000,0.615583,0.209793,0.041922,2.763597,1.977715,-2.855488,-1.353409,1.225189,90.952713,2.572435,1.745648,-0.641026
40,0.167000,0.604058,0.196823,0.036529,2.763596,1.977712,-2.855492,-1.443563,1.232216,90.924652,2.572444,1.745513,-0.641116
41,0.171000,0.619813,0.188913,0.025494,2.763594,1.977721,-2.855491,-1.486425,1.231298,90.950882,2.572425,1.745418,-0.641087
42,0.175000,0.630885,0.188430,0.035460,2.763604,1.977720,-2.855487,-1.579762,1.193832,90.942032,2.572401,1.745310,-0.641139
43,0.179000,0.633697,0.199823,0.040181,2.763602,1.977711,-2.855480,-1.664449,1.192429,90.928802,2.572435,1.745234,-0.641222
44,0.183000,0.637523,0.199350,0.045210,2.763605,1.977713,-2.855484,-1.740368,1.198428,90.901268,2.572436,1.745081,-0.641297
45,0.188000,0.649215,0.204344,0.053644,2.763595,1.977715,-2.855471,-1.742286,1.251887,90.875275,2.572420,1.744835,-0.641381
46,0.192000,0.633552,0.199147,0.045299,2.763594,1.977723,-2.855473,-1.833689,1.177762,90.877846,2.572495,1.744876,-0.641452
47,0.196000,0.648260,0.211697,0.052527,2.763600,1.977733,-2.855487,-1.905543,1.136973,90.810883,2.572622,1.744838,-0.641613
48,0.200000,0.616337,0.210468,0.039869,2.763611,1.977730,-2.855495,-1.948603,1.186443,90.774086,2.572611,1.744649,-0.641697
49,0.204000,0.652089,0.214246,0.043644,2.763602,1.977722,-2.855482,-1.977555,1.215051,90.815186,2.572611,1.744491,-0.641685
50,0.208000,0.624671,0.204490,0.041603,2.763600,1.977713,-2.855487,-2.089760,1.202264,90.808777,2.572591,1.744396,-0.641717
51,0.213000,0.649585,0.203336,0.042517,2.763592,1.977709,-2.855481,-2.167533,1.151648,90.773880,2.572613,1.744355,-0.641782
52,0.217000,0.637658,0.207709,0.041399,2.763592,1.977708,-2.855487,-2.207160,1.145401,90.741295,2.572679,1.744302,-0.641851
53,0.221000,0.620865,0.202519,0.040101,2.763591,1.977704,-2.855492,-2.293570,1.112545,90.721603,2.572705,1.744232,-0.641891
54,0.225000,0.632582,0.202638,0.047800,2.763599,1.977712,-2.855483,-2.363804,1.093759,90.687393,2.572732,1.744160,-0.641966
55,0.229000,0.592717,0.211458,0.035607,2.763597,1.977716,-2.855491,-2.417845,1.081035,90.651146,2.572774,1.744087,-0.642038
56,0.233000,0.631081,0.216576,0.044929,2.763602,1.977717,-2.855495,-2.468885,1.067470,90.631187,2.572782,1.744008,-0.642070
57,0.238000,0.640772,0.219641,0.048032,2.763603,1.977715,-2.855485,-2.519599,1.041740,90.594704,2.572821,1.743937,-0.642084
58,0.242000,0.629876,0.208467,0.043772,2.763599,1.977722,-2.855493,-2.591976,1.053212,90.573433,2.572842,1.743847,-0.642125
59,0.246000,0.644997,0.204754,0.049381,2.763593,1.977722,-2.855477,-2.629923,1.012817,90.549034,2.572882,1.743813,-0.642152
60,0.250000,0.626631,0.209237,0.042214,2.763596,1.977713,-2.855492,-2.732018,0.992959,90.579002,2.572881,1.743753,-0.642081
61,0.254000,0.640028,0.210244,0.045102,2.763594,1.977715,-2.855493,-2.764259,0.979327,90.525665,2.572912,1.743695,-0.642129
62,0.258000,0.630715,0.202120,0.035745,2.763589,1.977708,-2.855495,-2.789116,0.945111,90.501266,2.572984,1.743631,-0.642136
63,0.263000,0.623150,0.205334,0.044041,2.763601,1.977713,-2.855490,-2.828857,0.927026,90.479218,2.573027,1.743548,-0.642149
64,0.267000,0.649761,0.199103,0.046591,2.763594,1.977712,-2.855479,-2.854269,0.905512,90.419304,2.573044,1.743490,-0.642171
65,0.271000,0.652067,0.205443,0.044099,2.763593,1.977731,-2.855479,-2.904729,0.915695,90.351494,2.573110,1.743382,-0.642249
66,0.275000,0.634485,0.195937,0.031521,2.763598,1.977724,-2.855488,-2.979240,0.911508,90.312752,2.573176,1.743244,-0.642277
67,0.279000,0.610640,0.190057,0.031815,2.763595,1.977706,-2.855487,-3.066707,0.893359,90.289154,2.573252,1.743195,-0.642276
68,0.283000,0.610474,0.195945,0.037430,2.763602,1.977707,-2.855489,-3.118676,0.886199,90.256271,2.573268,1.743063,-0.642288
69,0.288000,0.629924,0.202558,0.045448,2.763603,1.977705,-2.855488,-3.249722,0.847116,90.213211,2.573354,1.743011,-0.642349
70,0.292000,0.629380,0.189546,0.037327,2.763594,1.977717,-2.855502,-3.394397,0.804084,90.163956,2.573421,1.742970,-0.642417
71,0.296000,0.634005,0.202971,0.041979,2.763594,1.977716,-2.855485,-3.520639,0.773385,90.122391,2.573485,1.742910,-0.642441
72,0.300000,0.612386,0.212298,0.040354,2.763592,1.977716,-2.855494,-3.666630,0.752354,90.090797,2.573565,1.742821,-0.642443
73,0.304000,0.606446,0.210118,0.045724,2.763595,1.977706,-2.855491,-3.775992,0.737818,90.052437,2.573642,1.742758,-0.642469
74,0.308000,0.621113,0.209860,0.044171,2.763597,1.977722,-2.855494,-3.872653,0.726013,90.043823,2.573713,1.742675,-0.642440
75,0.313000,0.612323,0.208995,0.041797,2.763596,1.977726,-2.855492,-3.952169,0.710649,90.016853,2.573799,1.742598,-0.642436
76,0.317000,0.634940,0.203351,0.039072,2.763599,1.977733,-2.855493,-4.052260,0.684536,89.988518,2.573877,1.742525,-0.642415
77,0.321000,0.585872,0.201286,0.036753,2.763601,1.977722,-2.855506,-4.117143,0.684805,89.957748,2.573906,1.742413,-0.642380
78,0.325000,0.620605,0.209905,0.039504,2.763592,1.977718,-2.855484,-4.143972,0.728001,89.952660,2.573960,1.742241,-0.642319
79,0.329000,0.625607,0.209046,0.043679,2.763591,1.977712,-2.855485,-4.188413,0.759732,89.980911,2.574010,1.742137,-0.642187
80,0.333000,0.639985,0.206872,0.044335,2.763594,1.977716,-2.855498,-4.197252,0.745042,89.958832,2.574115,1.742084,-0.642090
81,0.338000,0.623534,0.207963,0.046523,2.763603,1.977715,-2.855480,-4.224510,0.729682,89.925774,2.574196,1.742026,-0.642057
82,0.342000,0.646405,0.218203,0.047764,2.763598,1.977723,-2.855482,-4.262008,0.709758,89.891037,2.574290,1.741987,-0.642017
83,0.346000,0.660423,0.218423,0.048109,2.763598,1.977725,-2.855463,-4.242442,0.754153,89.946991,2.574331,1.741868,-0.641779
84,0.350000,0.639064,0.209020,0.042473,2.763602,1.977727,-2.855478,-4.200245,0.779349,89.948204,2.574432,1.741758,-0.641612
85,0.354000,0.640973,0.208346,0.043415,2.763592,1.977715,-2.855475,-4.186014,0.821800,89.935059,2.574504,1.741577,-0.641492
86,0.358000,0.639890,0.196301,0.042208,2.763601,1.977728,-2.855477,-4.204494,0.814019,89.913757,2.574609,1.741525,-0.641401
87,0.363000,0.649003,0.203839,0.041086,2.763600,1.977710,-2.855476,-4.237648,0.780489,89.898582,2.574727,1.741460,-0.641303
88,0.367000,0.636425,0.201989,0.040815,2.763597,1.977720,-2.855488,-4.242515,0.760694,89.869980,2.574810,1.741396,-0.641199
89,0.371000,0.627253,0.211778,0.041345,2.763604,1.977719,-2.855489,-4.325550,0.758250,89.884850,2.574870,1.741359,-0.641028
90,0.375000,0.614793,0.206533,0.037614,2.763600,1.977719,-2.855489,-4.303221,0.742524,89.871490,2.574982,1.741285,-0.640939
91,0.379000,0.623726,0.198132,0.038987,2.763605,1.977713,-2.855487,-4.317178,0.746482,89.897842,2.575023,1.741178,-0.640772
92,0.383000,0.628553,0.200867,0.037999,2.763602,1.977714,-2.855493,-4.091358,0.891835,89.969101,2.575010,1.740780,-0.640480
93,0.388000,0.642304,0.208871,0.043460,2.763598,1.977725,-2.855483,-4.356798,0.736491,89.884964,2.575177,1.740972,-0.640568
94,0.392000,0.621336,0.202436,0.034374,2.763601,1.977724,-2.855493,-4.511250,0.595220,89.825760,2.575397,1.741167,-0.640601
95,0.396000,0.632164,0.208108,0.042506,2.763606,1.977737,-2.855498,-4.612266,0.553947,89.796455,2.575524,1.741140,-0.640558
96,0.400000,0.616479,0.212577,0.046082,2.763601,1.977726,-2.855494,-4.619969,0.550277,89.806778,2.575588,1.741059,-0.640415
97,0.404000,0.636604,0.210670,0.048832,2.763598,1.977728,-2.855490,-4.620658,0.540410,89.831558,2.575635,1.740966,-0.640245
98,0.408000,0.642087,0.210702,0.055683,2.763603,1.977729,-2.855492,-4.707038,0.500246,89.873711,2.575803,1.740978,-0.640117
99,0.413000,0.640495,0.219234,0.052569,2.763609,1.977720,-2.855489,-4.726952,0.495375,89.876534,2.575892,1.740886,-0.640016
100,0.417000,0.645503,0.215656,0.048875,2.763610,1.977722,-2.855489,-4.812996,0.492175,89.892792,2.575954,1.740774,-0.639911
101,0.421000,0.605174,0.218310,0.041023,2.763601,1.977712,-2.855498,-4.843448,0.465759,89.886009,2.576038,1.740732,-0.639804
102,0.425000,0.606186,0.211659,0.049648,2.763594,1.977721,-2.855493,-4.862179,0.467655,89.893616,2.576114,1.740640,-0.639660
103,0.429000,0.613268,0.212402,0.038455,2.763608,1.977714,-2.855501,-4.892741,0.458247,89.910324,2.576214,1.740575,-0.639528
104,0.433000,0.628215,0.210412,0.047313,2.763609,1.977722,-2.855505,-4.939481,0.422855,89.901741,2.576314,1.740530,-0.639437
105,0.438000,0.636196,0.205604,0.050805,2.763605,1.977739,-2.855489,-4.954409,0.409312,89.873505,2.576376,1.740454,-0.639355
106,0.442000,0.634941,0.202527,0.040330,2.763602,1.977733,-2.855505,-4.970594,0.395568,89.868256,2.576461,1.740399,-0.639229
107,0.446000,0.632066,0.203378,0.041780,2.763600,1.977727,-2.855504,-5.010432,0.403219,89.864769,2.576546,1.740341,-0.639110
108,0.450000,0.630193,0.205134,0.039333,2.763602,1.977726,-2.855508,-5.052408,0.404978,89.834900,2.576620,1.740266,-0.639009
109,0.454000,0.626067,0.211191,0.037193,2.763604,1.977713,-2.855505,-5.084909,0.396647,89.827087,2.576705,1.740256,-0.638890
110,0.458000,0.619355,0.194729,0.040082,2.763599,1.977717,-2.855481,-5.089591,0.376664,89.814034,2.576777,1.740254,-0.638779
111,0.463000,0.634942,0.206400,0.042825,2.763598,1.977708,-2.855488,-5.059142,0.406629,89.805092,2.576844,1.740207,-0.638652
112,0.467000,0.640107,0.208603,0.039792,2.763595,1.977702,-2.855493,-5.077551,0.387221,89.779221,2.576918,1.740190,-0.638556
113,0.471000,0.628633,0.205884,0.042748,2.763597,1.977706,-2.855496,-5.087257,0.370212,89.765579,2.577002,1.740237,-0.638438
114,0.475000,0.652921,0.204148,0.043484,2.763593,1.977711,-2.855485,-5.085240,0.389117,89.760544,2.577070,1.740227,-0.638325
115,0.479000,0.632712,0.202540,0.037369,2.763598,1.977719,-2.855498,-5.062852,0.401750,89.720032,2.577125,1.740225,-0.638234
116,0.483000,0.620274,0.201445,0.037750,2.763596,1.977721,-2.855507,-5.050863,0.418780,89.699600,2.577206,1.740233,-0.638137
117,0.488000,0.604580,0.221027,0.035850,2.763605,1.977726,-2.855511,-5.003733,0.440589,89.653000,2.577262,1.740254,-0.638038
118,0.492000,0.596737,0.208158,0.033970,2.763600,1.977728,-2.855514,-5.025696,0.421137,89.628128,2.577321,1.740302,-0.637947
119,0.496000,0.609517,0.214978,0.040960,2.763606,1.977727,-2.855493,-5.032774,0.414368,89.610413,2.577387,1.740316,-0.637857
120,0.500000,0.617306,0.201428,0.037513,2.763602,1.977724,-2.855492,-5.005250,0.418049,89.569054,2.577432,1.740308,-0.637789
121,0.504000,0.627829,0.196756,0.027567,2.763598,1.977711,-2.855495,-5.017304,0.419388,89.539856,2.577462,1.740318,-0.637715
122,0.508000,0.634039,0.187572,0.025185,2.763608,1.977720,-2.855490,-5.020313,0.430446,89.535156,2.577497,1.740323,-0.637619
123,0.513000,0.645486,0.189003,0.037262,2.763604,1.977716,-2.855487,-5.028890,0.436082,89.507347,2.577545,1.740319,-0.637555
124,0.517000,0.639626,0.185129,0.037006,2.763600,1.977724,-2.855484,-5.068501,0.416755,89.497032,2.577599,1.740409,-0.637464
125,0.521000,0.637254,0.202064,0.046144,2.763602,1.977728,-2.855488,-5.089252,0.414693,89.475960,2.577631,1.740416,-0.637407
126,0.525000,0.634322,0.210867,0.051472,2.763607,1.977727,-2.855480,-5.090952,0.445738,89.473663,2.577666,1.740380,-0.637302
127,0.529000,0.640011,0.216064,0.039380,2.763613,1.977735,-2.855489,-5.085840,0.459162,89.461105,2.577685,1.740379,-0.637212
128,0.533000,0.638604,0.220068,0.045270,2.763601,1.977733,-2.855485,-5.105145,0.449939,89.446136,2.577713,1.740429,-0.637134
129,0.538000,0.637081,0.220219,0.051178,2.763608,1.977724,-2.855497,-5.121282,0.434152,89.429100,2.577728,1.740479,-0.637076
130,0.542000,0.648760,0.202596,0.043171,2.763609,1.977727,-2.855494,-5.127899,0.426605,89.407310,2.577739,1.740508,-0.637005
131,0.546000,0.610738,0.195143,0.036592,2.763600,1.977720,-2.855496,-5.135806,0.412351,89.400131,2.577763,1.740592,-0.636909
132,0.550000,0.618226,0.209755,0.038977,2.763606,1.977714,-2.855488,-5.112936,0.415421,89.392624,2.577758,1.740601,-0.636800
133,0.554000,0.607938,0.202850,0.037985,2.763600,1.977710,-2.855492,-5.097396,0.449767,89.368279,2.577773,1.740599,-0.636722
134,0.558000,0.623683,0.211236,0.043264,2.763603,1.977718,-2.855493,-5.067986,0.428476,89.358017,2.577782,1.740693,-0.636613
135,0.563000,0.630943,0.214403,0.045792,2.763600,1.977718,-2.855491,-5.044037,0.436140,89.332008,2.577801,1.740807,-0.636518
136,0.567000,0.615533,0.214317,0.042818,2.763598,1.977723,-2.855502,-5.039167,0.428426,89.328857,2.577799,1.740926,-0.636408
137,0.571000,0.651554,0.214086,0.054189,2.763606,1.977722,-2.855484,-5.065779,0.374623,89.321075,2.577784,1.741000,-0.636332
138,0.575000,0.598435,0.205545,0.040123,2.763606,1.977710,-2.855498,-5.069694,0.363199,89.333344,2.577778,1.741048,-0.636193
139,0.579000,0.636372,0.213362,0.047043,2.763599,1.977726,-2.855487,-5.019526,0.401155,89.289146,2.577776,1.741044,-0.636136
140,0.583000,0.643545,0.214126,0.044902,2.763613,1.977718,-2.855494,-5.008673,0.385853,89.280624,2.577725,1.741126,-0.636042
141,0.588000,0.625640,0.204152,0.043356,2.763604,1.977724,-2.855491,-5.017848,0.375638,89.279984,2.577732,1.741235,-0.635937
142,0.592000,0.612256,0.224727,0.043751,2.763601,1.977724,-2.855484,-5.025971,0.369049,89.292900,2.577738,1.741318,-0.635801
143,0.596000,0.628090,0.213984,0.037624,2.763597,1.977727,-2.855484,-5.043839,0.354312,89.279060,2.577729,1.741375,-0.635711
144,0.600000,0.643416,0.205275,0.042190,2.763602,1.977725,-2.855482,-5.048639,0.309875,89.276649,2.577700,1.741472,-0.635583
145,0.604000,0.627975,0.198480,0.039568,2.763595,1.977719,-2.855486,-5.018363,0.325473,89.298439,2.577690,1.741496,-0.635425
146,0.608000,0.623870,0.206704,0.039193,2.763596,1.977712,-2.855494,-5.047635,0.311773,89.317970,2.577693,1.741584,-0.635298
147,0.613000,0.621954,0.210631,0.043819,2.763602,1.977714,-2.855489,-5.053675,0.287143,89.312553,2.577690,1.741660,-0.635191
148,0.617000,0.613244,0.204598,0.039073,2.763593,1.977708,-2.855485,-5.073959,0.286183,89.303101,2.577684,1.741668,-0.635089
149,0.621000,0.630462,0.212676,0.043360,2.763597,1.977703,-2.855491,-5.108793,0.272446,89.323662,2.577678,1.741723,-0.634968
150,0.625000,0.617188,0.199919,0.034103,2.763596,1.977709,-2.855495,-5.116570,0.275628,89.334869,2.577650,1.741731,-0.634861
151,0.629000,0.642279,0.211917,0.042220,2.763606,1.977711,-2.855489,-5.149824,0.272854,89.327469,2.577656,1.741780,-0.634741
